time_limit;default;radius;in_range;osm_id;random
0.0;14814;14814;14814;14814;14814
132.75759759176404;14609;14611;14613;14610;14613
265.5151951835281;14073;14040;14044;14061;14050
398.27279277529215;13243;13196;13198;13210;13209
531.0303903670562;12347;12203;12239;12266;12282
663.7879879588202;11390;11112;11173;11242;11263
796.5455855505843;10384;10020;10098;10199;10227
929.3031831423483;9458;8986;9088;9199;9238
1062.0607807341123;8596;8043;8167;8308;8368
1194.8183783258764;7759;7131;7243;7433;7470
1327.5759759176403;7001;6304;6442;6653;6687
1460.3335735094045;6293;5584;5695;5918;5955
1593.0911711011686;5701;4939;5080;5299;5339
1725.8487686929325;5160;4386;4529;4752;4805
1858.6063662846966;4664;3862;4051;4264;4327
1991.3639638764605;4220;3404;3574;3814;3863
2124.1215614682246;3809;3017;3173;3402;3457
2256.8791590599885;3486;2692;2827;3074;3122
2389.636756651753;3198;2392;2539;2761;2816
2522.394354243517;2900;2124;2264;2478;2538
2655.1519518352807;2658;1884;2026;2259;2309
2787.909549427045;2435;1684;1823;2028;2096
2920.667147018809;2261;1517;1645;1845;1919
3053.424744610573;2080;1361;1490;1694;1760
3186.182342202337;1904;1218;1354;1549;1611
3318.939939794101;1778;1116;1244;1422;1487
3451.697537385865;1672;1018;1136;1326;1382
3584.455134977629;1540;929;1044;1221;1273
3717.212732569393;1420;858;965;1114;1169
3849.970330161157;1333;795;881;1035;1073
3982.727927752921;1244;717;814;951;995
4115.485525344685;1168;670;762;888;940
4248.243122936449;1109;615;704;837;888
4381.000720528214;1032;572;666;782;817
4513.758318119977;985;537;612;727;767
4646.515915711741;926;502;580;684;714
4779.273513303506;884;482;553;657;674
4912.031110895269;851;451;518;623;650
5044.788708487034;810;424;492;591;625
5177.546306078798;772;394;463;563;588
5310.303903670561;731;368;438;535;548
5443.061501262326;689;353;418;506;518
5575.81909885409;652;328;384;474;489
5708.5766964458535;612;315;367;451;471
5841.334294037618;574;300;345;416;446
5974.091891629382;544;285;330;390;422
6106.849489221146;525;275;314;375;405
6239.60708681291;505;261;296;363;385
6372.364684404674;487;253;280;354;368
6505.122281996438;469;241;264;334;344
6637.879879588202;450;229;253;319;334
6770.637477179966;432;225;243;306;326
6903.39507477173;415;209;233;293;312
7036.152672363494;395;200;226;283;302
7168.910269955258;382;196;217;274;293
7301.667867547022;368;187;205;263;277
7434.425465138786;352;177;194;252;266
7567.18306273055;344;167;184;242;261
7699.940660322314;339;160;179;234;254
7832.698257914079;330;154;175;227;242
7965.455855505842;323;150;169;222;238
8098.213453097606;310;149;168;214;227
8230.97105068937;298;141;161;207;219
8363.728648281134;290;138;155;201;212
8496.486245872899;283;136;154;197;204
8629.243843464663;274;134;150;191;198
8762.001441056427;265;129;148;182;191
8894.75903864819;263;126;144;179;190
9027.516636239954;254;120;140;169;183
9160.274233831718;251;116;137;167;179
9293.031831423483;241;107;128;157;173
9425.789429015247;231;106;124;152;169
9558.547026607012;224;106;122;150;165
9691.304624198774;218;104;119;145;158
9824.062221790538;213;102;115;140;154
9956.819819382303;207;101;113;138;148
10089.577416974067;199;98;110;132;145
10222.335014565831;194;96;106;128;136
10355.092612157596;191;92;104;125;135
10487.850209749358;182;85;101;119;131
10620.607807341123;176;83;98;115;127
10753.365404932887;171;80;96;110;125
10886.123002524651;165;79;94;104;121
11018.880600116416;162;78;94;102;121
11151.63819770818;157;77;94;100;115
11284.395795299943;149;76;91;96;112
11417.153392891707;148;74;85;93;107
11549.910990483471;142;72;82;90;103
11682.668588075236;139;71;81;87;100
11815.426185667;134;70;79;84;99
11948.183783258764;130;68;77;83;97
12080.941380850527;126;66;75;80;96
12213.698978442291;124;63;74;76;93
12346.456576034056;122;62;72;76;90
12479.21417362582;121;60;71;73;84
12611.971771217584;116;58;70;70;81
12744.729368809349;116;58;69;69;81
12877.486966401111;114;56;67;68;80
13010.244563992876;110;56;66;67;79
13143.00216158464;107;56;65;63;76
13275.759759176404;101;54;62;61;73
13408.517356768169;100;53;60;61;72
13541.274954359931;99;52;60;60;72
13674.032551951695;97;51;60;59;70
13806.79014954346;97;51;60;59;69
13939.547747135224;95;51;60;57;69
14072.305344726989;93;51;60;57;68
14205.062942318753;91;49;58;56;66
14337.820539910515;88;48;54;55;64
14470.57813750228;85;44;51;51;60
14603.335735094044;83;43;49;49;60
14736.093332685808;81;41;48;47;59
14868.850930277573;81;41;47;47;59
15001.608527869337;79;39;47;45;58
15134.3661254611;78;39;47;44;57
15267.123723052864;77;39;46;42;57
15399.881320644628;76;38;46;42;56
15532.638918236393;75;37;45;42;56
15665.396515828157;73;36;44;40;54
15798.154113419921;73;36;44;40;54
15930.911711011684;71;35;44;39;54
16063.669308603448;71;35;44;39;53
16196.426906195213;68;35;43;39;50
16329.184503786977;66;35;43;39;49
16461.94210137874;65;34;42;38;48
16594.699698970504;65;33;41;38;46
16727.45729656227;64;33;40;38;45
16860.214894154033;63;33;40;37;45
16992.972491745797;62;33;40;37;45
17125.73008933756;60;33;40;37;45
17258.487686929326;60;32;39;37;45
17391.24528452109;60;31;39;37;45
17524.002882112854;60;31;39;37;45
17656.76047970462;59;31;38;36;45
17789.51807729638;58;30;36;35;44
17922.275674888144;58;30;36;35;44
18055.03327247991;58;30;36;35;44
18187.790870071673;57;29;36;34;44
18320.548467663437;56;29;35;34;44
18453.3060652552;56;29;35;34;43
18586.063662846966;55;29;35;33;43
18718.82126043873;54;27;33;32;42
18851.578858030494;54;27;33;32;42
18984.33645562226;54;27;33;32;41
19117.094053214023;53;27;33;32;41
19249.851650805787;52;26;32;31;40
19382.609248397548;49;26;32;31;39
19515.366845989312;48;25;31;30;38
19648.124443581077;47;24;30;29;37
19780.88204117284;47;24;29;29;37
19913.639638764605;47;23;28;28;37
20046.39723635637;46;23;27;28;36
20179.154833948134;46;22;27;28;36
20311.9124315399;45;22;27;28;36
20444.670029131663;45;21;27;28;36
20577.427626723427;44;21;27;28;35
20710.18522431519;44;20;27;28;34
20842.942821906956;44;20;26;28;34
20975.700419498717;44;20;26;28;34
21108.45801709048;42;20;26;27;34
21241.215614682245;42;20;26;27;34
21373.97321227401;42;20;26;27;34
21506.730809865774;41;20;26;27;34
21639.48840745754;40;20;25;26;33
21772.246005049303;40;20;25;26;33
21905.003602641067;37;20;24;25;31
22037.76120023283;35;20;23;23;30
22170.518797824596;35;20;23;23;30
22303.27639541636;34;20;23;23;30
22436.03399300812;33;20;23;23;29
22568.791590599885;33;20;23;23;29
22701.54918819165;31;19;23;22;27
22834.306785783414;31;19;23;22;27
22967.06438337518;31;19;23;22;26
23099.821980966943;31;19;23;22;26
23232.579578558707;31;19;23;21;26
23365.33717615047;31;19;23;21;26
23498.094773742236;31;19;23;21;26
23630.852371334;31;19;22;21;26
23763.609968925764;31;19;22;21;26
23896.36756651753;30;19;22;21;26
24029.12516410929;29;19;22;21;25
24161.882761701054;29;19;22;21;25
24294.640359292818;28;19;22;20;24
24427.397956884583;27;19;22;20;23
24560.155554476347;27;19;22;20;23
24692.91315206811;27;19;21;19;22
24825.670749659876;27;18;20;19;22
24958.42834725164;27;18;20;19;22
25091.185944843404;26;17;20;19;22
25223.94354243517;26;17;20;19;22
25356.701140026933;25;17;19;18;22
25489.458737618697;25;17;19;18;22
25622.216335210458;25;17;19;18;22
25754.973932802222;25;17;19;18;21
25887.731530393987;25;17;19;18;21
26020.48912798575;25;17;19;18;21
26153.246725577515;24;17;19;18;20
26286.00432316928;24;17;19;18;20
26418.761920761044;24;17;19;18;20
26551.51951835281;22;17;19;17;19
26684.277115944573;22;17;19;17;19
26817.034713536337;22;17;19;17;18
26949.7923111281;22;17;19;17;18
27082.549908719862;21;17;19;17;17
27215.307506311627;20;16;19;17;17
27348.06510390339;20;16;19;17;17
27480.822701495155;20;16;19;17;17
27613.58029908692;20;16;19;17;17
27746.337896678684;20;16;19;17;17
27879.09549427045;20;16;19;16;17
28011.853091862213;20;16;19;16;17
28144.610689453977;19;15;18;15;16
28277.36828704574;19;14;17;15;15
28410.125884637506;19;14;16;15;15
28542.88348222927;19;14;16;15;15
28675.64107982103;19;14;16;15;15
28808.398677412795;19;13;16;15;15
28941.15627500456;19;13;16;15;15
29073.913872596324;18;13;16;15;15
29206.67147018809;18;13;16;15;15
29339.429067779853;18;13;16;15;15
29472.186665371617;18;13;15;15;15
29604.94426296338;18;12;15;15;15
29737.701860555146;18;12;15;15;15
29870.45945814691;18;12;15;15;14
30003.217055738674;18;12;15;15;14
30135.974653330435;18;12;15;15;14
30268.7322509222;18;12;15;14;14
30401.489848513964;18;12;15;14;14
30534.247446105728;18;12;14;14;14
30667.005043697493;17;11;14;14;14
30799.762641289257;17;11;14;14;14
30932.52023888102;17;11;14;14;14
31065.277836472786;17;11;14;14;14
31198.03543406455;17;11;14;14;14
31330.793031656314;17;11;14;14;14
31463.55062924808;17;11;14;14;14
31596.308226839843;17;11;14;14;14
31729.065824431604;17;11;14;14;14
31861.823422023368;17;11;14;14;14
31994.581019615132;17;11;14;14;14
32127.338617206897;17;11;14;14;14
32260.09621479866;17;11;14;14;14
32392.853812390425;17;11;14;14;14
32525.61140998219;17;11;14;14;14
32658.369007573954;17;11;13;14;14
32791.126605165715;17;11;13;14;14
32923.88420275748;17;11;13;14;14
33056.64180034924;17;11;13;14;14
33189.39939794101;17;11;13;14;14
33322.15699553277;17;11;13;14;14
33454.91459312454;17;11;13;14;14
33587.6721907163;17;11;13;14;14
33720.429788308065;17;11;13;14;14
33853.18738589983;17;11;13;14;14
33985.944983491594;16;10;13;14;13
34118.70258108336;16;10;13;14;13
34251.46017867512;16;10;13;14;13
34384.21777626689;16;10;13;14;13
34516.97537385865;16;10;13;14;13
34649.732971450416;16;10;13;14;13
34782.49056904218;16;10;13;14;13
34915.248166633944;16;10;13;13;13
35048.00576422571;15;10;13;13;13
35180.76336181747;15;10;13;13;13
35313.52095940924;15;10;13;13;13
35446.278557001;15;10;13;13;13
35579.03615459276;15;10;13;13;13
35711.79375218452;13;9;11;11;12
35844.55134977629;13;9;11;11;12
35977.30894736805;13;9;11;11;12
36110.06654495982;13;9;11;11;12
36242.82414255158;13;9;11;11;12
36375.581740143345;13;9;11;11;12
36508.33933773511;13;9;11;11;12
36641.096935326874;13;9;11;11;12
36773.85453291864;13;9;11;11;12
36906.6121305104;13;9;11;11;12
37039.36972810217;13;9;11;11;12
37172.12732569393;13;9;11;11;12
37304.884923285696;13;9;11;11;12
37437.64252087746;13;9;11;11;12
37570.400118469224;13;9;11;11;12
37703.15771606099;13;9;11;11;12
37835.91531365275;13;9;11;11;12
37968.67291124452;13;9;11;11;12
38101.43050883628;13;9;11;11;12
38234.188106428046;13;9;11;11;11
38366.94570401981;13;9;11;11;10
38499.703301611575;13;9;11;11;10
38632.46089920333;13;9;11;11;10
38765.218496795096;13;9;11;11;10
38897.97609438686;12;9;11;11;10
39030.733691978625;12;9;11;11;10
39163.49128957039;12;9;11;11;10
39296.24888716215;12;9;11;11;10
39429.00648475392;12;9;11;11;10
39561.76408234568;12;9;11;11;10
39694.52167993745;12;9;11;11;10
39827.27927752921;12;8;11;11;10
39960.036875120975;12;8;11;11;10
40092.79447271274;12;8;11;11;10
40225.552070304504;12;8;11;11;10
40358.30966789627;12;8;11;11;10
40491.06726548803;12;8;11;11;10
40623.8248630798;12;8;11;11;10
40756.58246067156;12;8;11;11;10
40889.340058263326;11;7;11;10;9
41022.09765585509;11;7;11;10;9
41154.855253446854;11;7;11;10;9
41287.61285103862;11;7;11;10;9
41420.37044863038;11;7;11;10;9
41553.12804622215;11;7;11;10;9
41685.88564381391;11;7;11;10;9
41818.64324140567;11;7;11;10;9
41951.40083899743;11;7;11;10;9
42084.1584365892;11;7;11;10;9
42216.91603418096;11;7;11;10;9
42349.67363177273;10;7;11;10;9
42482.43122936449;9;7;10;9;9
42615.188826956255;9;6;10;9;9
42747.94642454802;9;6;10;9;9
42880.704022139784;9;5;8;9;9
43013.46161973155;9;5;8;8;9
43146.21921732331;9;5;8;8;9
43278.97681491508;9;5;8;8;9
43411.73441250684;9;5;8;8;9
43544.492010098606;9;5;8;8;9
43677.24960769037;9;5;8;8;9
43810.007205282134;9;5;8;8;9
43942.7648028739;9;5;8;8;9
44075.52240046566;9;5;8;8;9
44208.27999805743;9;5;8;8;9
44341.03759564919;9;5;8;8;9
44473.795193240956;9;5;8;8;9
44606.55279083272;9;5;8;8;9
44739.310388424485;9;5;8;8;9
44872.06798601624;9;5;8;8;9
45004.825583608006;9;5;8;8;9
45137.58318119977;9;5;8;8;9
45270.340778791535;9;5;8;8;9
45403.0983763833;9;5;8;8;8
45535.85597397506;9;5;8;8;8
45668.61357156683;9;5;8;8;8
45801.37116915859;9;5;8;8;8
45934.12876675036;9;5;8;8;8
46066.88636434212;9;5;8;8;8
46199.643961933885;9;5;8;8;8
46332.40155952565;9;5;8;8;8
46465.159157117414;9;5;8;8;8
46597.91675470918;9;5;8;8;8
46730.67435230094;9;5;7;8;8
46863.43194989271;9;5;7;8;8
46996.18954748447;8;5;7;7;7
47128.947145076236;8;5;7;7;7
47261.704742668;8;5;7;7;7
47394.462340259764;8;5;7;7;7
47527.21993785153;7;5;7;7;7
47659.97753544329;7;5;7;7;7
47792.73513303506;7;5;7;7;7
47925.492730626815;7;5;7;7;7
48058.25032821858;7;5;7;7;7
48191.00792581034;7;5;7;7;7
48323.76552340211;7;5;7;7;7
48456.52312099387;7;5;7;7;7
48589.280718585636;7;5;7;7;7
48722.0383161774;7;5;7;7;7
48854.795913769165;7;5;7;7;7
48987.55351136093;7;5;7;7;7
49120.311108952694;7;5;7;7;7
49253.06870654446;7;5;7;7;7
49385.82630413622;7;5;7;7;7
49518.58390172799;7;5;7;7;7
49651.34149931975;7;5;7;7;7
49784.099096911516;7;5;7;7;7
49916.85669450328;7;5;7;7;7
50049.614292095044;7;5;7;7;7
50182.37188968681;7;5;7;7;7
50315.12948727857;7;5;7;7;6
50447.88708487034;7;5;7;7;6
50580.6446824621;7;5;7;7;6
50713.402280053866;7;5;7;7;6
50846.15987764563;7;5;7;6;6
50978.917475237395;7;5;7;6;6
51111.67507282915;7;5;7;6;6
51244.432670420916;7;5;7;6;6
51377.19026801268;7;5;7;6;6
51509.947865604445;7;5;7;6;6
51642.70546319621;7;5;7;6;6
51775.46306078797;7;5;7;6;6
51908.22065837974;7;5;7;6;6
52040.9782559715;7;5;7;6;6
52173.73585356327;7;5;7;6;6
52306.49345115503;7;5;7;6;6
52439.251048746795;7;5;7;6;6
52572.00864633856;7;5;7;6;6
52704.766243930324;7;5;7;6;6
52837.52384152209;7;5;7;6;6
52970.28143911385;7;5;7;6;6
53103.03903670562;7;5;7;6;6
53235.79663429738;7;5;7;6;6
53368.554231889146;7;5;7;6;6
53501.31182948091;7;5;7;6;6
53634.069427072674;7;5;7;6;6
53766.82702466444;7;5;7;6;6
53899.5846222562;7;5;7;6;6
54032.34221984797;7;5;7;6;6
54165.099817439725;7;5;7;6;6
54297.85741503149;7;5;7;6;6
54430.61501262325;7;5;7;6;6
54563.37261021502;7;5;7;6;6
54696.13020780678;6;4;7;5;5
54828.887805398546;6;4;7;5;5
54961.64540299031;6;4;7;5;5
55094.403000582075;6;4;7;5;5
55227.16059817384;6;4;7;4;5
55359.918195765604;6;4;7;4;5
55492.67579335737;6;4;7;4;5
55625.43339094913;6;4;7;4;5
55758.1909885409;6;4;7;4;5
55890.94858613266;6;4;7;4;5
56023.706183724426;6;4;7;4;5
56156.46378131619;6;4;7;4;5
56289.221378907954;6;4;7;4;5
56421.97897649972;6;4;7;4;5
56554.73657409148;6;4;7;4;5
56687.49417168325;6;4;7;4;5
56820.25176927501;6;4;7;4;5
56953.009366866776;6;4;7;4;5
57085.76696445854;6;4;7;4;5
57218.5245620503;6;4;7;4;5
57351.28215964206;6;4;7;4;5
57484.039757233826;6;4;7;4;5
57616.79735482559;6;4;7;4;5
57749.554952417355;6;4;7;4;5
57882.31255000912;6;4;7;4;5
58015.07014760088;6;4;7;4;5
58147.82774519265;6;4;7;4;5
58280.58534278441;6;4;7;4;5
58413.34294037618;6;4;7;4;5
58546.10053796794;6;4;7;4;5
58678.858135559705;6;4;7;4;5
58811.61573315147;6;4;7;4;5
58944.373330743234;6;4;7;4;5
59077.130928335;6;4;7;4;5
59209.88852592676;6;4;7;4;5
59342.64612351853;6;4;7;4;5
59475.40372111029;6;4;7;4;5
59608.161318702056;6;4;7;4;5
59740.91891629382;6;4;7;4;5
59873.676513885584;6;4;7;4;5
60006.43411147735;6;4;7;4;5
60139.19170906911;6;4;7;4;5
60271.94930666087;6;4;7;4;5
60404.706904252635;6;4;7;4;5
60537.4645018444;6;4;7;4;5
60670.22209943616;6;4;7;4;5
60802.97969702793;5;3;6;3;4
60935.73729461969;5;3;6;3;4
61068.494892211456;5;3;6;3;4
61201.25248980322;5;3;6;3;4
61334.010087394985;5;3;6;3;4
61466.76768498675;5;3;6;3;4
61599.525282578514;5;3;6;3;4
61732.28288017028;5;3;6;3;4
61865.04047776204;5;3;6;3;4
61997.79807535381;5;3;6;3;4
62130.55567294557;5;3;6;3;4
62263.313270537335;5;3;6;3;4
62396.0708681291;5;3;6;3;4
62528.828465720864;5;3;6;3;4
62661.58606331263;5;3;6;3;4
62794.34366090439;5;3;6;3;4
62927.10125849616;5;3;6;3;4
63059.85885608792;5;3;6;3;4
63192.616453679686;5;3;6;3;4
63325.37405127145;5;3;6;3;4
63458.13164886321;5;3;6;3;4
63590.88924645497;5;3;6;3;4
63723.646844046736;5;3;6;3;4
63856.4044416385;5;3;6;3;4
63989.162039230265;5;3;6;3;4
64121.91963682203;5;3;6;3;4
64254.67723441379;5;3;6;3;4
64387.43483200556;5;3;6;3;4
64520.19242959732;5;3;6;3;4
64652.95002718909;5;3;6;3;4
64785.70762478085;5;3;6;3;4
64918.465222372615;5;3;6;3;4
65051.22281996438;5;3;6;3;4
65183.980417556144;5;3;6;3;4
65316.73801514791;5;3;6;3;4
65449.49561273967;5;3;6;3;4
65582.25321033143;5;3;6;3;4
65715.0108079232;5;3;6;3;4
65847.76840551496;5;3;6;3;4
65980.52600310673;5;3;6;3;4
66113.28360069849;5;3;6;3;4
66246.04119829026;5;3;6;3;4
66378.79879588202;5;3;6;3;4
66511.55639347379;5;3;6;3;4
66644.31399106554;5;3;6;3;4
66777.07158865732;5;3;6;3;4
66909.82918624907;5;3;6;3;4
67042.58678384084;5;3;6;3;4
67175.3443814326;5;3;6;3;4
67308.10197902437;5;3;6;3;4
67440.85957661613;5;3;5;3;3
67573.6171742079;5;3;5;3;3
67706.37477179966;5;3;5;3;3
67839.13236939143;5;3;5;3;3
67971.88996698319;5;3;5;3;3
68104.64756457495;5;3;5;3;3
68237.40516216672;5;3;5;3;3
68370.16275975847;5;3;5;3;3
68502.92035735025;5;3;5;3;3
68635.677954942;5;3;5;3;3
68768.43555253377;5;3;5;3;3
68901.19315012553;5;3;5;3;3
69033.9507477173;5;3;4;3;3
69166.70834530906;5;3;4;3;3
69299.46594290083;5;3;4;3;3
69432.22354049259;5;3;4;3;3
69564.98113808436;5;3;4;3;3
69697.73873567612;5;3;4;3;3
69830.49633326789;5;3;4;3;3
69963.25393085965;5;3;4;3;3
70096.01152845142;5;3;4;3;3
70228.76912604317;5;3;4;3;3
70361.52672363495;5;3;4;3;3
70494.2843212267;5;3;4;3;3
70627.04191881848;5;3;4;3;3
70759.79951641023;5;3;4;3;3
70892.557114002;5;3;4;3;3
71025.31471159376;5;3;4;3;3
71158.07230918552;5;3;4;3;3
71290.82990677729;5;3;4;3;3
71423.58750436905;5;3;3;3;3
71556.34510196082;5;3;3;3;3
71689.10269955258;5;3;3;3;3
71821.86029714435;5;3;3;3;3
71954.6178947361;5;3;3;3;3
72087.37549232788;5;3;3;3;3
72220.13308991963;5;3;3;3;3
72352.8906875114;5;3;3;3;3
72485.64828510316;5;3;3;3;3
72618.40588269493;5;3;3;3;3
72751.16348028669;4;3;3;3;2
72883.92107787846;4;3;3;3;2
73016.67867547022;3;2;3;2;2
73149.43627306199;3;2;3;2;2
73282.19387065375;3;2;3;2;2
73414.95146824552;3;2;3;2;2
73547.70906583728;3;2;3;2;2
73680.46666342905;3;2;3;2;2
73813.2242610208;3;2;3;2;2
73945.98185861258;3;2;3;2;2
74078.73945620433;3;2;3;2;2
74211.49705379609;3;2;3;2;2
74344.25465138786;3;2;3;2;2
74477.01224897962;3;2;3;2;2
74609.76984657139;3;2;3;2;2
74742.52744416315;3;2;3;2;2
74875.28504175492;3;2;3;2;2
75008.04263934668;3;2;3;2;2
75140.80023693845;3;2;3;2;2
75273.5578345302;3;2;3;2;2
75406.31543212198;3;2;3;2;2
75539.07302971373;3;2;3;2;2
75671.8306273055;3;2;3;2;2
75804.58822489726;3;2;3;2;2
75937.34582248903;3;2;3;2;2
76070.10342008079;3;2;3;2;2
76202.86101767256;3;2;3;2;2
76335.61861526432;3;2;3;2;2
76468.37621285609;3;2;3;2;2
76601.13381044785;3;2;3;2;2
76733.89140803962;3;2;3;2;2
76866.64900563138;3;2;3;2;2
76999.40660322315;3;2;3;2;2
77132.1642008149;3;2;3;2;2
77264.92179840666;3;2;3;2;2
77397.67939599844;3;2;3;2;2
77530.43699359019;3;2;3;2;2
77663.19459118196;3;2;3;2;2
77795.95218877372;3;2;3;2;2
77928.70978636549;3;2;3;2;2
78061.46738395725;3;2;3;2;2
78194.22498154902;3;2;2;2;2
78326.98257914078;3;2;2;2;2
78459.74017673255;3;2;2;2;2
78592.4977743243;3;2;2;2;2
78725.25537191608;3;2;2;2;2
78858.01296950784;3;2;2;2;2
78990.77056709961;3;2;2;2;2
79123.52816469136;3;2;2;2;2
79256.28576228314;3;2;2;2;2
79389.0433598749;3;2;2;2;2
79521.80095746666;3;2;2;2;2
79654.55855505842;3;2;2;2;2
79787.3161526502;3;2;2;2;2
79920.07375024195;3;2;2;2;2
80052.83134783372;3;2;2;2;2
80185.58894542548;3;2;2;2;2
80318.34654301725;3;2;2;2;2
80451.10414060901;3;2;2;2;2
80583.86173820077;3;2;2;2;2
80716.61933579254;3;2;2;2;2
80849.3769333843;3;2;2;2;2
80982.13453097607;3;2;2;2;2
81114.89212856782;3;2;2;2;2
81247.6497261596;3;2;2;2;2
81380.40732375135;3;2;2;2;2
81513.16492134312;3;2;2;2;2
81645.92251893488;3;2;2;2;2
81778.68011652665;3;2;2;2;2
81911.43771411841;3;2;2;2;2
82044.19531171018;3;2;2;2;2
82176.95290930194;3;2;2;2;2
82309.71050689371;3;2;2;2;2
82442.46810448547;3;2;2;2;2
82575.22570207724;3;2;2;2;2
82707.983299669;3;2;2;2;2
82840.74089726077;3;2;2;2;2
82973.49849485252;3;2;2;2;2
83106.2560924443;3;2;2;2;2
83239.01369003605;3;2;2;2;2
83371.77128762782;3;2;2;2;2
83504.52888521958;3;2;2;2;2
83637.28648281134;3;2;2;2;2
